Wavelength	1st	2nd	3rd	4th	5th	6th	7th	8th	9th
200.0	0.5643821021812384	0.005381401928043111	4.099318489286539e-06	0.0038659201394729077	7.360745701730011e-10	1.8276807663427548e-08	0.0038659201394728076	0.13533528323661279	0.0038659201394728076
201.00166944908182	0.5771320402379384	0.00611263869984586	4.8414208122607545e-06	0.004318632999301001	1.0180250615533174e-09	2.231836677432517e-08	0.004318632999300873	0.14650889766983427	0.004318632999300873
202.0033388981636	0.5895471748334038	0.006932103940932711	5.711495543592142e-06	0.004818984812878448	1.4044483138387109e-09	2.7223272246917114e-08	0.004818984812878285	0.15835062143912176	0.004818984812878285
203.00500834724542	0.601597063698235	0.007848821399225643	6.730428110441963e-06	0.0053713153967313455	1.9326966262538184e-09	3.316913070624329e-08	0.005371315396731137	0.1708749302119382	0.005371315396731137
204.0066777963272	0.6132522860141796	0.008872517584013986	7.922301663878137e-06	0.005980280974034297	2.652969468728054e-09	4.036860117081181e-08	0.0059802809740340315	0.18409404278210248	0.0059802809740340315
205.00834724540903	0.6244846239300866	0.010013648256052617	9.314850713723622e-06	0.006650868512415506	3.6325487499496146e-09	4.907600022236116e-08	0.0066508685124151675	0.19801766124236664	0.0066508685124151675
206.01001669449082	0.6352672420543571	0.01128342217761977	1.093997326433654e-05	0.0073884097506281676	4.961366234327867e-09	5.959508822378534e-08	0.007388409750627737	0.2126527117954413	0.007388409750627737
207.01168614357263	0.6455748636423555	0.012693821523023145	1.283430808877558e-05	0.00819859477991065	6.7593005518837154e-09	7.228823530404958e-08	0.008198594779910104	0.22800308884014636	0.008198594779910104
208.01335559265442	0.6553839421876667	0.014257618312352192	1.5039884397877546e-05	0.009087485034400242	9.185712842898255e-09	8.758719691946979e-08	0.009087485034399548	0.2440694051327294	0.009087485034399548
209.01502504173624	0.6646728271269398	0.015988386197429687	1.760485181844458e-05	0.010061525533595118	1.2451870846780157e-08	1.0600576433238243e-07	0.010061525533594236	0.2608487509619275	0.010061525533594236
210.01669449081803	0.673421922379471	0.017900506899917352	2.058429929060266e-05	0.01112755620869957	1.6837088163683405e-08	1.2815459588213774e-07	0.011127556208698453	0.278334465386031	0.011127556208698453
211.01836393989984	0.6816138364647832	0.020009170578442887	2.404117222753627e-05	0.012292822133887327	2.2709626958266855e-08	1.5475858107952788e-07	0.012292822133885911	0.2965159226574053	0.012292822133885911
212.02003338898163	0.6892335229741661	0.02233036938551191	2.8047298049676534e-05	0.013564982473221684	3.0553688764566736e-08	1.8667714201699112e-07	0.013564982473219892	0.3153783370010544	0.013564982473219892
213.02170283806345	0.6962684102153724	0.024880883466962017	3.268453100781125e-05	0.014952117944350694	4.100416157601088e-08	2.249279361032574e-07	0.014952117944348427	0.33490258891587515	0.014952117944348427
214.02337228714524	0.7027085189031314	0.027678258657889768	3.804602804245867e-05	0.016462736591315374	5.489121675105449e-08	2.707144915233122e-07	0.016462736591312508	0.3550650761274361	0.016462736591312508
215.02504173622705	0.7085465668315478	0.030740775140420673	4.42376682863415e-05	0.018105777651058814	7.329737389393786e-08	3.254583829887579e-07	0.018105777651055196	0.3758375922373923	0.018105777651055196
216.02671118530884	0.7137780595373203	0.03408740635140603	5.1379629698016e-05	0.01989061329168321	9.763029642879462e-08	3.9083664125379925e-07	0.019890613291678644	0.39718723598528266	0.019890613291678644
217.02838063439066	0.7184013660445457	0.03773776746308709	5.960813721176084e-05	0.02182704799537357	1.297153693498591e-07	4.6882518658425543e-07	0.02182704799536781	0.41907635386265885	0.02182704799536781
218.03005008347245	0.7224177788720209	0.04171205280780152	6.907739769456003e-05	0.023925315355378327	1.719130719742516e-07	5.617491850205424e-07	0.023925315355371072	0.4414625185969043	0.023925315355371072
219.03171953255426	0.7258315575817458	0.046030961679668476	7.99617379071073e-05	0.026196072054715788	2.2726732540386166e-07	6.723413480964969e-07	0.026196072054706657	0.46429854575337853	0.026196072054706657
220.03338898163605	0.7286499552519679	0.050715612022428386	9.245796256241454e-05	0.028650388794548606	2.996924048503145e-07	8.038093329761091e-07	0.028650388794537122	0.48753255039085985	0.028650388794537122
221.03505843071787	0.7308832273687866	0.05578744160365437	0.00010678795045169828	0.031299737942638975	3.9420770457638026e-07	9.599135521490557e-07	0.03129973794262454	0.5111080453489298	0.03129973794262454
222.03672787979966	0.7325446227461446	0.06126809638155301	0.0001232015074499328	0.03415597767713994	5.172316775402333e-07	1.1450568713669747e-06	0.034155977677121814	0.5349640823497679	0.034155977677121814
223.03839732888147	0.7336503562040577	0.06717930589152028	0.00014197949600851665	0.03723133240838279	6.769486988587928e-07	1.364387862972542e-06	0.03723133240836005	0.5590354366647042	0.03723133240836005
224.04006677796326	0.7342195628582012	0.07354274561518084	0.00016343726147375796	0.04053836927143234	8.837654845621617e-07	1.6239194908153535e-06	0.040538369271403835	0.5832528356322398	0.040538369271403835
225.04173622704508	0.734274233999501	0.08037988644427786	0.00018792837621965083	0.04408997049517035	1.1508771042387225e-06	1.9306653342775175e-06	0.04408997049513464	0.6075432308245199	0.04408997049513464
226.04340567612687	0.7338391346691644	0.0877118315145825	0.00021584872313201858	0.047899301469632914	1.4949666342894805e-06	2.2927957143220273e-06	0.04789930146958822	0.6318301131492651	0.04789930146958822
227.04507512520868	0.7329417031616379	0.09555914085983033	0.000247640940407268	0.0519797743524023	1.937067190332525e-06	2.7198163657543173e-06	0.05197977435234641	0.6560338696507019	0.05197977435234641
228.04674457429047	0.7316119328142908	0.1039416445210224	0.0002837992499094681	0.05634500707708637	2.503620541425868e-06	3.2227726089098803e-06	0.05634500707701653	0.6800721802429954	0.05634500707701653
229.0484140233723	0.7298822365672337	0.11287824494050075	0.0003248746914394656	0.061008777652384584	3.227772838722923e-06	3.8144823126256383e-06	0.06100877765229738	0.7038604520808068	0.06100877765229738
230.0500834724541	0.7277872948986307	0.1223867096708372	0.0003714807851824773	0.06598497366892374	4.150955283905117e-06	4.509801310487157e-06	0.06598497366881495	0.7273122887514983	0.06598497366881495
231.0517529215359	0.7253638878592401	0.13248345563340236	0.00042429964428808507	0.07128753696295667	5.324805916669856e-06	5.325925335808536e-06	0.07128753696282107	0.7503399909703489	0.07128753696282107
232.05342237061768	0.7226507120438574	0.14318332636773315	0.00048408855896892006	0.07693040342106326	6.813498212894623e-06	6.282732979369955e-06	0.07693040342089438	0.7728550849818127	0.07693040342089438
233.0550918196995	0.719688183446006	0.15449936391756686	0.0005516870726507363	0.08292743794809271	8.696552948452369e-06	7.403174649288482e-06	0.08292743794788254	0.7947688744243173	0.08292743794788254
234.05676126878132	0.7165182272448583	0.16644257719942912	0.0006280245695350002	0.08929236466158308	1.1072221881781892e-05	8.713713026071911e-06	0.08929236466132176	0.8159930110110198	0.08929236466132176
235.0584307178631	0.7131840556692746	0.17902170889156901	0.000714128391412711	0.09603869241959814	1.4061545310990541e-05	1.0244821059258797e-05	0.09603869241927349	0.836440079021509	0.09603869241927349
236.0601001669449	0.7097299351723596	0.1922430030612778	0.0008111324996615988	0.10317963583508993	1.7813200518119873e-05	1.203154414620307e-05	0.1031796358346869	0.8560241882964017	0.1031796358346869
237.0617696160267	0.7062009442305079	0.20610997591359012	0.0009202866960347161	0.11072803197824811	2.250927454654508e-05	1.4114133769348704e-05	0.1107280319777482	0.8746615701841225	0.1107280319777482
238.06343906510853	0.7026427231529868	0.22062319219038198	0.0010429664130736174	0.1186962530184946	2.8372112654008167e-05	1.653876054623453e-05	0.11869625301787502	0.8922711707121096	0.11869625301787502
239.0651085141903	0.6991012173512998	0.23578004987231901	0.0011806830817214376	0.12709611510944557	3.5672413085268763e-05	1.9358315366521515e-05	0.12709611510867833	0.9087752351475054	0.12709611510867833
240.0667779632721	0.695622415571485	0.2515745759334315	0.0013350950799391394	0.13593878387286293	4.473875940123402e-05	2.2633308052095556e-05	0.1359387838719136	0.9240998780783388	0.1359387838719136
241.06844741235392	0.6922520846368309	0.2679972359659635	0.0015080192618128507	0.14523467689088618	5.596880330555867e-05	2.6432873778736323e-05	0.1452346768897125	0.9381756331874336	0.1452346768897125
242.07011686143574	0.6890355022830257	0.2850347605284368	0.0017014430617549945	0.15499336366916083	6.984233346628819e-05	3.083589833926116e-05	0.154993363667711	0.9509379770087635	0.154993363667711
243.07178631051752	0.686017189692304	0.3026699910698087	0.001917537162923273	0.16522346358631532	8.693648888916802e-05	3.593227420599305e-05	0.1652234635845258	0.9623278211494642	0.1652234635845258
244.07345575959934	0.6832406453476367	0.3208817482447735	0.002158668712889972	0.1759325423969934	0.00010794339850681853	4.1824300261536695e-05	0.17593254239478642	0.9722919677287536	0.17593254239478642
245.07512520868113	0.6807480818323637	0.33964472535774565	0.0024274150628747163	0.18712700790571893	0.00013369055123368183	4.8628239006912666e-05	0.18712700790299935	0.9807835231248825	0.18712700790299935
246.07679465776295	0.6785801671949223	0.3589294095544816	0.0027265779994978356	0.19881200547663888	0.0001651642221018916	5.647604601974953e-05	0.19881200547329037	0.9877622655290853	0.19881200547329037
247.07846410684473	0.6767757724825492	0.37870203321977514	0.0030591984300148635	0.21099131408896304	0.00020353629940061046	6.551728741593737e-05	0.2109913140848435	0.9931949622762024	0.2109913140848435
248.08013355592655	0.6753717270221333	0.3989245578371197	0.003428571473361353	0.22366724368910745	0.00025019487400674867	7.592126205815073e-05	0.22366724368404353	0.9970556334491688	0.22366724368404353
249.08180300500834	0.6744025829909722	0.4195546923220778	0.00383826190008129	0.23684053462741736	0.00030677896418134133	8.787934624471552e-05	0.23684053462119764	0.999325758831733	0.23684053462119764
250.08347245409016	0.6739003907752059	0.44054594755666665	0.004292119854355438	0.25051025999932225	0.0003752177557224397	0.00010160757959181804	0.2505102599916892	0.9999944259026949	0.2505102599916892
251.08514190317194	0.6738944865594763	0.46184772852920497	0.004794296780916446	0.26467373173714936	0.00045777473706976285	0.00011734951177871097	0.26467373172778946	0.9990584172168807	0.26467373172778946
252.08681135225376	0.6744112935281331	0.48340546512559024	0.005349261468679203	0.27932641131905944	0.000557097100164421	0.00013537933074545268	0.27932641130759145	0.9965222361938113	0.27932641130759145
253.08848080133555	0.6754741379864571	0.5051607822271816	0.005961816111478085	0.2944618259750127	0.0006762707588671259	0.0001560052938000882	0.2944618259609733	0.9923980710248347	0.2944618259609733
254.09015025041737	0.6771030816302301	0.5270517093516239	0.006637112274454271	0.3100714912758852	0.000818881305716261	0.00017957348388947933	0.3100714912587119	0.9867056971034774	0.3100714912587119
255.09181969949915	0.679314771103975	0.5490129296307208	0.007380666642450646	0.3261448409902471	0.000989081182876475	0.00020647191399576038	0.3261448409692576	0.9794723190719347	0.3261448409692576
256.09348914858094	0.6821223058927572	0.5709760674594027	0.008198376414341695	0.34266916508359146	0.0011916632823738879	0.00023713500321726413	0.34266916505795875	0.9707323542490315	0.34266916505795875
257.09515859766276	0.6855351254900242	0.5928700136777618	0.00909653419465176	0.3596295567164896	0.001432141112241002	0.0002720484485552987	0.35962955668521207	0.9605271598520686	0.35962955668521207
258.0968280467446	0.689558916675096	0.6146212866705786	0.010081842221215918	0.37700886907108666	0.0017168355671935195	0.0003117545167311912	0.37700886903295244	0.9489047070374995	0.37700886903295244
259.0984974958264	0.6941955416191299	0.6361544272924533	0.01116142575514305	0.3947876827992968	0.0020529682232788937	0.0003568577804742164	0.39478768275284093	0.9359192053548224	0.39478768275284093
260.1001669449082	0.699442987418218	0.6573924250586445	0.012342845447093003	0.41294428484092116	0.0024487609341582233	0.0004080313236214269	0.4129442847843739	0.921630681726578	0.4129442847843739
261.10183639398997	0.7052953375273662	0.6782571725892385	0.01363410848203782	0.43145465930574006	0.0029135413412264156	0.0004660234390242289	0.4314546592369657	0.9061045185279916	0.4314546592369657
262.1035058430718	0.7117427654400603	0.6986699448644847	0.015043678293408483	0.4502924910505092	0.003457853719988367	0.0005316648426314317	0.4502924909669324	0.8894109557366029	0.4502924909669324
263.1051752921536	0.7187715508256177	0.7185518994491574	0.016580482627011874	0.4694291825099176	0.0040935743708751466	0.0006058764261806637	0.46942918240843556	0.8716245624504021	0.46942918240843556
264.10684474123536	0.7263641182012701	0.7378245934805784	0.018253919725536177	0.4888338842603566	0.004834030524536869	0.0006896775696447913	0.4888338841372343	0.8528236833287248	0.4888338841372343
265.1085141903172	0.734499098078629	0.7564105128948209	0.02007386239603622	0.5084735397071248	0.005694121470870453	0.0007841950329113089	0.5084735395578698	0.833089865691075	0.5084735395578698
266.110183639399	0.7431514103856462	0.7742336090947392	0.0220506597157183	0.5283129441900963	0.006690440339779399	0.0008906724440844794	0.5283129440093102	0.8125072731138073	0.5283129440093102
267.1118530884808	0.7522923698261772	0.7912198380471839	0.024195136125842533	0.5483148187005671	0.007841394663024531	0.001010480399256204	0.5483148184817678	0.7911620913931492	0.5483148184817678
268.11352253756263	0.7618898127006228	0.8072976966396376	0.02651858765983487	0.5684398982936402	0.009167323534650825	0.0011451271855555973	0.5684398980290517	0.7691419326966604	0.5684398980290517
269.1151919866444	0.7719082445737152	0.822398751032474	0.029032775049982418	0.5886470351671034	0.010690608867626404	0.0012962701357246546	0.5886470348474053	0.7465352436061299	0.5886470348474053
270.1168614357262	0.7823090080402119	0.8364581517148938	0.03174991345758216	0.6088933162601545	0.01243577792290438	0.0014657276183441192	0.6088933158741845	0.7234307225665927	0.6088933158741845
271.118530884808	0.7930504697069546	0.8494151300122295	0.034682658574334946	0.6291341951045979	0.01442959397168052	0.001655491663118171	0.6291341946389997	0.6999167520030717	0.6291341946389997
272.1202003338898	0.8040882253813938	0.8612134709006236	0.03784408884833973	0.649323637538469	0.016701131650875244	0.0018677412152906304	0.6493236369772746	0.6760808500540685	0.6493236369772746
273.1218697829716	0.815375322333129	0.8718019571616937	0.041247683596420996	0.6694142807684625	0.01928183329557912	0.0021048560072830656	0.6694142800925978	0.652009146505007	0.6694142800925978
274.1235392320534	0.8268624973772625	0.8811347801534214	0.04490729677590909	0.6893576051444168	0.022205542291103473	0.0023694310289960017	0.6893576043311175	0.6277858870924937	0.6893576043311175
275.12520868113523	0.8384984294173279	0.8891719127816514	0.04883712620354601	0.7091041178876786	0.0255085092929061	0.0026642915708834022	0.7091041169097991	0.6034929698986815	0.7091041169097991
276.12687813021705	0.8502300049820838	0.8958794406256314	0.05305167802703483	0.7286035478966385	0.02922936702711756	0.002992508805886482	0.7286035467218368	0.5792095170720568	0.7286035467218368
277.1285475792988	0.8620025951955415	0.9012298475964707	0.057565726276015104	0.7478050506385207	0.03340906932013213	0.0033574158675949437	0.7478050492282968	0.5550114846043812	0.7478050492282968
278.1302170283806	0.8737603425340057	0.9052022529836399	0.06239426734400675	0.7666574220278354	0.03809079002517883	0.003762624372596001	0.7666574203363983	0.5309713123714355	0.7666574203363983
279.13188647746244	0.8854464556485027	0.9077825972652586	0.06755246928115881	0.7851093200900194	0.043319777629027834	0.00421204132488822	0.7851093180629531	0.5071576161155916	0.7851093180629531
280.1335559265442	0.8970035104665406	0.9089637746157633	0.07305561580950795	0.8031094931150229	0.04914316154434	0.00470988632950341	0.803109490687718	0.48363492251878193	0.803109490687718
281.1352253756261	0.9083737557343361	0.9087457106317253	0.07891904500782808	0.8206070129209695	0.05560970643268938	0.005260709031127944	0.8206070100167796	0.46046344799273253	0.8206070100167796
282.13689482470784	0.9194994211201453	0.9071353844047942	0.08515808265199251	0.8375515117737297	0.06276951136839189	0.005869406681592178	0.8375515083018076	0.4376989213063275	0.8375515083018076
283.13856427378965	0.930323025971717	0.9041467946912314	0.09178797023896879	0.853893421445329	0.07067365125019417	0.006541241727663455	0.8538934172980885	0.4153924496840958	0.8538934172980885
284.14023372287147	0.9407876868065076	0.8998008705513371	0.09882378776789184	0.8695842128432817	0.079373758600101	0.00728185929769913	0.8695842078934236	0.393590427551219	0.8695842078934236
285.14190317195323	0.9508374216126809	0.8941253274502837	0.10628037140000267	0.8845766346052847	0.08892154475668611	0.008097304452486326	0.8845766287023147	0.3723344866739	0.8845766287023147
286.14357262103505	0.9604174490521726	0.8871544704155395	0.11417222617022525	0.8988249490295804	0.0993682604709127	0.008994039052103702	0.898824941995737	0.3516614860542492	0.898824941995737
287.14524207011686	0.9694744806844344	0.87892894642659	0.12251343397652721	0.9122851637014161	0.11076409703880408	0.009978958077006838	0.912285155326912	0.33160353958941463	0.912285155326912
288.1469115191987	0.9779570043709277	0.8694954487617733	0.13131755712859375	0.9249152571807102	0.12315753034599639	0.011059405227891759	0.9249152472181768	0.31218807919837416	0.9249152472181768
289.1485809682805	0.9858155570758185	0.8589063765371163	0.14059753779427744	0.9366753971354321	0.13659461153854935	0.012243187615368457	0.9366753852934397	0.29343795085872565	0.9366753852934397
290.15025041736226	0.9930029853474741	0.847219453136042	0.15036559374034214	0.9475281493394602	0.15111820945229346	0.01353858933724133	0.9475281352749682	0.2753715407810012	0.9475281352749682
291.1519198664441	0.9994746918478538	0.8344973076405613	0.16063311082265186	0.9574386760026155	0.16676721140481313	0.014954383728415586	0.9574386593121822	0.25800292877999187	0.9574386593121822
292.1535893155259	1.005188866392213	0.8208070237287505	0.17141053273958345	0.9663749219639111	0.18357569045106736	0.016499844056310022	0.9663749021734704	0.2413420657809413	0.9663749021734704
293.15525876460765	1.0101067000691073	0.8062196607956101	0.18270724862051782	0.9743077873563986	0.20157204869296763	0.01818475242336264	0.9743077639093813	0.22539497232213224	0.9743077639093813
294.15692821368947	1.014192581129637	0.790809752281598	0.19453147907805995	0.9812112854426591	0.22077814767881232	0.020019406627966103	0.981211257686202	0.2101639548827786	0.981211257686202
295.1585976627713	1.0174142714644059	0.7746547863529762	0.2068901614075502	0.9870626844232584	0.24120843829161664	0.02201462472618858	0.9870626515922101	0.19564783687389076	0.9870626515922101
296.1602671118531	1.0197430626257133	0.7578346741695539	0.21978883466974547	0.9918426321354553	0.2628691037654983	0.024181747029152767	0.9918425933338443	0.1818422011771473	0.9918425933338443
297.1619365609349	1.021153910499954	0.7404312109985225	0.23323152544151754	0.9955352626850128	0.28575723054484103	0.02653263526518428	0.9955352168645939	0.16873964119968604	0.9955352168645939
298.1636060100167	1.0216255478898448	0.722527535388909	0.24722063506436642	0.9981282841889885	0.3098600225708548	0.029079668632046772	0.9981282301244324	0.15633001752748985	0.9981282301244325
